Angle [deg] EIRP [dBW]
0.7937138    28.16511
2.091996    28.30218
3.263896    28.52062
4.814941    29.00432
6.078756    29.50548
7.342570    30.06625
8.606385    30.54091
9.870199    30.86654
11.32550    30.85389
12.48719    30.61204
13.37441    30.22280
15.21269    28.65541
15.95949    27.91316
16.47650    27.08755
16.93607    26.31623
17.39564    25.54491
17.85521    24.76449
18.25733    23.78638
18.60201    22.80490
18.94668    21.81126
19.29136    20.86621
19.63604    19.87258
19.92327    19.03038
20.15305    18.23034
20.38284    17.33923
20.61262    16.42990
20.84241    15.52057
21.07219    14.64766
21.30198    13.75655
21.53176    12.88365
22.36473    11.77764
22.43941    11.66152
23.59982    12.56840
24.55725    13.40603
25.43809    14.21892
26.52957    14.71075
27.79339    14.78800
29.05720    14.45460
30.32101    14.30665
31.58483    14.61904
32.84864    14.65324
34.11246    14.49867
35.37627    14.08247
36.64009    13.66296
37.90390    13.25670
39.16772    12.86368
40.43153    12.47398
41.69534    12.07434
42.95916    11.61509
44.22297    11.49364
45.48679    11.91862
46.75060    12.12504
48.01442    12.31489
49.27823    12.65377
50.54205    12.78732
51.80586    12.72548
53.06967    12.38214
54.21860    11.78972
55.25263    11.00268
56.40155    10.35580
57.66536    9.856806
58.92918    9.632689
60.19299    9.531108
61.45681    9.499073
62.72062    9.347815
63.98443    9.110452
65.24825    8.747242
66.51206    8.271433
67.77588    7.676401
68.98225    6.896223
70.18861    6.094850
71.45243    5.327607
72.71624    4.775627
73.98006    4.273324
75.24387    3.754462
76.50769    3.364758
77.77150    3.024731
79.03532    2.671456
80.29913    2.258570
81.56294    1.908608
82.82676    1.962678
84.09057    1.983632
85.35439    1.878738
86.61820    1.492346
87.88202    1.033096
88.97349    0.6129495
