Angle [deg] EIRP [dBW]
0.7937138    29.01954
2.057528    28.92127
3.321343    28.78988
4.585157    28.77441
6.013103    28.99743
7.112786    29.39256
8.376600    29.89372
9.640415    30.33857
10.90423    30.52511
12.16804    30.48314
13.43186    30.07357
14.52333    29.43443
15.44247    28.67502
16.18927    27.95099
16.82118    27.11697
17.45309    26.27567
17.97010    25.55752
18.42967    24.74067
18.88924    23.85095
19.34881    22.98856
19.80838    22.09885
20.21050    21.23610
20.55518    20.39628
20.89985    19.56456
21.24453    18.75308
21.58921    17.96588
21.99133    17.02117
22.45090    16.14967
22.91047    15.29639
23.37004    14.43399
23.94450    13.46909
25.26576    12.57359
26.52957    11.80303
27.73594    11.04173
28.89124    10.25907
30.09123    9.854258
31.18271    10.62924
31.92951    11.16566
33.65289    11.29009
34.91670    10.88052
36.18052    10.42127
37.44433    10.15741
38.70815    9.900177
39.97196    9.656190
41.23578    9.435386
42.49959    9.214581
43.76340    8.970594
45.02722    8.524591
46.06125    7.972156
46.93115    7.165609
48.01442    6.433221
49.62291    6.188024
50.88672    6.066572
52.15054    5.822586
53.41435    5.350088
54.44838    4.536499
55.25263    3.729551
56.17176    2.941229
57.32069    2.131705
58.58450    1.937394
59.84831    2.180235
61.11213    2.721133
62.37594    3.116313
63.63976    3.335972
64.90357    3.346989
66.16739    3.126185
67.51737    2.585908
68.52268    1.817917
69.44182    1.012971
70.36095    0.2216854
71.33754    -0.5606481
72.71624    -0.4171956
73.98006    -0.08162620
75.24387    0.06186170
76.50769    -0.03309634
77.77150    -0.1114956
79.03532    0.1147860
80.29913    0.05625720
81.56294    -0.2506528
82.82676    -0.8754907
83.97568    -1.608845
85.00971    -2.412079
85.92885    -3.228734
86.73309    -4.035682
87.59479    -4.846182
88.52213    -5.606843
89.26072    -6.174799
