Angle [deg] EIRP [dBW]
1.442308    28.17835
4.711538    28.62512
6.442308    29.24543
8.269231    30.11023
9.711538    30.60682
10.96154    30.91932
12.30769    30.92753
13.46154    30.75164
14.42308    30.20872
15.28846    29.60424
16.05769    28.93820
16.44231    28.33079
16.82692    27.66241
17.60628    26.76961
18.31478    25.96035
19.00413    25.10239
19.46370    24.54661
20.09561    23.63973
20.84241    22.46034
21.24453    21.70385
22.16367    19.68156
22.69231    18.61280
23.26923    17.15291
23.84615    15.20521
24.32692    13.80570
24.71154    12.16170
25.19231    10.51829
25.57692    8.935272
26.01256    7.218902
26.77850    6.145874
27.08488    5.662019
27.96572    6.772410
28.71252    7.658204
29.74655    8.315505
31.01037    8.525228
32.27418    8.426958
33.30821    8.138990
34.91670    7.264088
36.00818    6.492068
36.86987    5.735561
37.61667    4.900508
38.24858    4.027630
38.82304    3.142260
39.39750    2.184031
40.02941    1.229795
41.00599    0.3564800
42.04002    0.5681135
42.72937    1.366474
43.24639    2.242107
43.70596    3.064567
44.16553    3.850598
44.68254    4.715302
45.25700    5.534820
45.94636    6.368569
46.86549    7.223611
48.01442    7.923508
49.27823    8.335248
50.54205    8.465489
51.80586    8.393713
53.15584    8.172192
54.33349    8.058080
55.59730    8.075721
56.86112    8.037063
58.02281    7.817844
58.92918    7.556223
60.28846    7.073757
61.92308    6.412992
62.98077    5.870661
64.35209    5.112101
65.47803    4.329666
66.45462    3.485605
67.31631    2.647783
68.06311    1.856097
68.75246    1.089215
69.44182    0.2919752
70.13117    -0.5052647
70.82052    -1.284290
71.62477    -2.111187
72.65880    -2.880825
73.86517    -3.572910
75.12898    -4.224242
76.85236    -4.780043
78.07788    -5.057013
79.37999    -5.470033
80.64381    -5.750449
81.90762    -5.739431
83.17144    -5.552891
84.43525    -5.422650
85.69906    -5.358644
86.96288    -5.466849
88.22669    -5.720771
89.14583    -5.760206
